* sky lines to use for wavelength calibration
* Made by WS, updated by SMC (23/02/06)
* mostly taken from the UVES sky spectrum (air wavelengths)
* of Hanuschik, 2003, A&A, 407, 1157
* third col is the relative flux as measured by UVES
*5197.928     100  252.81952
*5200.286      50  146.71915
5577.338    3000 7787.20312
* NaD:
5892.5       100
6300.309    1200 12080.1601
6363.783     500 4285.49219 
6498.737     100  477.27051
6533.050     100  365.90558
6553.626     100  313.95578
6863.971     400 1801.09155
6912.638     100  554.53674
6923.192     200  888.77643 
6939.542     100  508.59033
* merged blend, sep 0.2A:
6949.066     200 638.99097+607.09387
* merged blend, sep 0.3A:
6978.424     200 355.93060+345.67819
7276.424     500 2756.488
7284.456     200 832.297
7316.290     500 2071.27808
7329.160     200  934.76514
7340.901     600 1797.64551 
7358.680     150  877.69849
* merged blend, sep 0.2A:
7369.384     300 1052.17041+1042.06226
7392.210     100  565.55060
* merged blend, sep 0.3A:
7401.862     200  632.21143+613.32782
7524.007     400 1219.89624
7571.751     250  875.61389
7750.656     700 2643.76270
7760.011     300  850.68115
7794.121     600 1905.77039
7808.480     200  843.75476 
7821.519     600 1743.04419
7841.285     200  794.86212
* merged blend, sep 0.26A:
7853.391     600 1026.26770+1256.79395
7860.662     200  852.17700
7870.738     400 1068.61560
7878.790     100  551.74609
7881.678     100  417.05734
7889.680     200  639.83752
7913.718    1000 2789.34399
7921.106     200  767.60651
7930.890     100  342.52710
7931.440     100  372.23880
7949.212     200  638.57288
7964.654     500 2021.87903
7979.773     200  790.93616
7993.334     400 1374.03491
8014.072     150  654.76257
* merged blend, sep 0.28A:
8025.824     400  848.92944+821.63086
8052.031     100  334.84723
8061.991     100  431.61420
8062.389     100  418.75244 
8310.725     200  601.70996
8344.613    1200 4015.41895 
8352.877     200  800.86523
8364.509     100  260.17957
8364.970     100  228.09714
8382.402     300  897.24506
8399.167     900 3010.41284
8415.242     400 1251.72266
* merged blend, sep 0.06A:
8430.147     900 2101.93335+2111.74146
8452.266     500 1057.90283 
* merged blend, sep 0.28A:
8465.374     600 1333.72351+1255.91541
8493.396     200  628.97192
* This blend is too close, so remove:
*8504.642     200  737.60931
*8505.068     200  720.39764 
8538.69      100  567.76068
8548.395     100  274.57352
8548.957     100  247.52283
8596.675      50  113.74756
8597.377      50  113.88984
8758.729     100  386.50220
8760.278      50  182.89944
8761.337     300  800.54205
8761.617     100  282.15411
8767.925     400 1348.02563
8778.344     400 1550.41980
8791.189     200  571.35803
8827.112    1000 3574.88428 
8836.449     300  819.04437
8867.605     300  832.33350
8885.856     900 2588.75562
8903.123     400 1179.10962
8919.637     800 1940.46436
8943.408     400 1018.44336
* merged blend, sep 0.3A:
8958.103     400 1281.51135+1211.65442 
8988.384     200  615.77911 
9001.135     200  709.43677
9001.593     200  713.65002 
9049.254     100  353.68591
9049.865     100  340.63269
9306.011     200  690.78894
9307.385     600 1280.04480
9312.904     200  612.14325
9313.346     500 2069.05078
9322.480     200  648.69348 
9323.763     600 2040.75977
9337.874     300  749.62341
9374.338     100  393.90585
9375.977    1700 5196.79590
9386.795     200  561.74884
9401.857     100  366.91412 
9402.336     100  354.16586 
9419.746     300 1081.68481
9439.670    1200 3537.20215
9458.524     500 1680.04736 
9476.896    1000 2531.89087
9502.835     400 1354.79370
9519.205     500 1532.20862
9519.539     500 1610.85376
9567.113     300 1107.18201
9567.611     300 1087.63184
9607.702     100  401.85150
9620.664     200  538.49213
9621.337     100  347.08142 
9699.343     300 1004.51825
9719.839     500 1530.24951 
9791.116    1000 3396.16357
9799.551     200  504.54163
9799.827     200  697.44739
9848.494     300  861.61084
9872.147     900 2732.51611
9894.751     300 1158.04541 
9914.555     600 1756.68237
9914.777     600 1784.78467
9941.665     400 1219.53491
9942.213     200  653.62427
9946.515     600 1800.82300 
9945.298     300  843.68988   
9956.599     800 2487.11963
9961.722     300 1035.89062
9962.144     300 1004.44873
9972.357     200  683.33331
